# time height velocity acceleration mass thrust air_resistance
1.571429 0.000000 30.804148 39.205279 2.801204 200.000000 0.052109
3.142857 96.813036 96.558424 44.481982 2.602407 200.000000 0.509923
4.714286 303.469334 171.088022 50.373869 2.403611 200.000000 1.587057
6.285714 634.518246 255.417422 56.954459 2.204814 200.000000 3.488298
7.857143 1106.209803 350.698266 64.312069 2.006018 200.000000 6.447220
9.428571 1736.712796 458.241737 72.561440 1.807221 200.000000 10.719865
11.000000 2546.398121 579.577777 81.866247 1.608425 200.000000 16.574812
12.571429 3558.242952 716.565661 92.481969 1.409629 200.000000 24.281378
14.142857 4798.461627 749.881112 -50.080486 1.409629 0.000000 25.241496
15.714286 5915.012161 797.362967 110.511938 1.210832 200.000000 27.231273
17.285714 7304.459523 840.397984 -55.740098 1.210832 0.000000 28.534591
18.857143 8556.262968 757.066294 -50.318417 1.210832 0.000000 21.969844
20.428571 9683.810732 681.241346 -46.186063 1.210832 0.000000 16.966256
22.000000 10697.307198 759.266686 145.491041 1.012036 200.000000 20.196624
23.571429 12070.077460 830.588945 -54.717257 1.012036 0.000000 22.814582
25.142857 13307.729597 748.656026 -49.561004 1.012036 0.000000 17.596270
26.714286 14422.996397 673.874030 -45.616082 1.012036 0.000000 13.603867
28.285714 15425.619405 788.721536 191.785635 0.813239 200.000000 17.867213
29.857143 16901.835512 893.317891 -58.663002 0.813239 0.000000 21.541899
31.428571 18233.189919 805.927669 -52.560917 0.813239 0.000000 16.579443
33.000000 19434.751042 870.736983 135.045499 0.681650 132.385594 18.400351
34.571429 20969.791866 928.933106 -60.977706 0.681650 0.000000 19.634059
36.142857 22354.255090 838.351148 -54.308422 0.681650 0.000000 15.087939
37.714286 23604.609761 756.948349 -49.295141 0.681650 0.000000 11.670633
39.285714 24733.235615 987.555249 342.794833 0.482854 200.000000 18.944796
40.857143 26708.354831 1190.390175 -84.641291 0.482854 0.000000 25.334042
42.428571 28474.461880 1067.807947 -71.372454 0.482854 0.000000 18.927131
44.000000 30064.322664 963.018250 -61.996251 0.482854 0.000000 14.399794
45.571429 31501.090666 870.983129 -55.139357 0.482854 0.000000 11.088915
47.142857 32801.698213 788.382011 -49.989339 0.482854 0.000000 8.602208
48.714286 33978.862699 712.930796 -46.039480 0.482854 0.000000 6.695003
50.285714 35042.337857 643.002646 -42.959983 0.482854 0.000000 5.208055
51.857143 35999.728158 577.404493 -40.528576 0.482854 0.000000 4.034040
53.428571 36857.037690 515.239046 -38.591084 0.482854 0.000000 3.098515
55.000000 37619.050873 455.816184 -37.038013 0.482854 0.000000 2.348608
56.571429 38289.602840 928.439492 638.558586 0.284058 200.000000 9.473321
58.142857 40537.003561 1354.163751 -96.727711 0.284058 0.000000 18.336971
59.714286 42545.546057 1215.335992 -79.962164 0.284058 0.000000 13.574591
61.285714 44356.630965 1098.786315 -68.373789 0.284058 0.000000 10.282825
62.857143 45998.874476 997.889625 -60.040181 0.284058 0.000000 7.915600
64.428571 47492.855499 908.395780 -53.861075 0.284058 0.000000 6.160378
66.000000 48853.832643 827.444421 -49.167928 0.284058 0.000000 4.827254
67.571429 50093.395107 753.035252 -45.534650 0.284058 0.000000 3.795194
69.142857 51220.514863 683.724601 -42.678904 0.284058 0.000000 2.983998
70.714286 52242.243854 618.442433 -40.407492 0.284058 0.000000 2.338786
72.285714 53164.191080 556.377194 -38.584631 0.284058 0.000000 1.820988
73.857143 53990.857891 496.900684 -37.112745 0.284058 0.000000 1.402888
75.428571 54725.878946 439.517478 -35.920427 0.284058 0.000000 1.064201
77.000000 55372.198537 383.829906 -34.954666 0.284058 0.000000 0.789869
78.571429 55932.201506 329.513194 -34.175695 0.284058 0.000000 0.568597
80.142857 56407.811431 276.297383 -33.553517 0.284058 0.000000 0.391862
81.714286 56800.564711 223.953866 -33.065505 0.284058 0.000000 0.253239
83.285714 57111.666438 172.285098 -32.694745 0.284058 0.000000 0.147922
84.857143 57342.032161 121.116536 -32.428878 0.284058 0.000000 0.072400
86.428571 57492.318408 1233.436261 1448.108529 0.111938 173.161519 7.461458
88.000000 61218.546125 2203.085120 -214.009981 0.111938 0.000000 20.354380
89.571429 64416.300214 1915.252571 -152.322354 0.111938 0.000000 13.449182
91.142857 67237.911348 1703.925443 -116.639445 0.111938 0.000000 9.454904
92.714286 69771.494465 1538.367620 -94.070512 0.111938 0.000000 6.928580
94.285714 72072.781012 1402.480165 -78.877159 0.111938 0.000000 5.227864
95.857143 74179.289268 1286.944458 -68.168285 0.111938 0.000000 4.029133
97.428571 76117.463595 1185.965227 -60.350736 0.111938 0.000000 3.154051
99.000000 77906.608554 1095.737431 -54.484641 0.111938 0.000000 2.497412
100.571429 79561.209806 1013.654212 -49.984910 0.111938 0.000000 1.993720
102.142857 81092.378934 937.867320 -46.471134 0.111938 0.000000 1.600394
103.714286 82508.792812 867.028818 -43.686960 0.111938 0.000000 1.288739
105.285714 83817.326647 800.132054 -41.454376 0.111938 0.000000 1.038828
106.857143 85023.493552 736.409859 -39.646599 0.111938 0.000000 0.836469
108.428571 86131.757631 675.267172 -38.171366 0.111938 0.000000 0.671334
110.000000 87145.761806 616.235156 -36.960290 0.111938 0.000000 0.535768
111.571429 88068.496693 558.939158 -35.961890 0.111938 0.000000 0.424009
113.142857 88902.427730 503.075818 -35.136906 0.111938 0.000000 0.331662
114.714286 89649.592120 448.396397 -34.455084 0.111938 0.000000 0.255340
116.285714 90311.673549 394.694388 -33.892927 0.111938 0.000000 0.192413
117.857143 90890.060198 341.796152 -33.432102 0.111938 0.000000 0.140830
119.428571 91385.890026 1501.711121 1509.687517 0.043154 69.200331 2.662468
121.000000 95609.723721 2545.940555 -180.668237 0.043154 0.000000 6.408156
122.571429 99387.417483 2297.629272 -135.364304 0.043154 0.000000 4.453099
124.142857 102830.844290 2106.994233 -107.262109 0.043154 0.000000 3.240370
125.714286 106009.399357 1953.081663 -88.626615 0.043154 0.000000 2.436170
127.285714 108969.100946 1824.004214 -75.653775 0.043154 0.000000 1.876337
128.857143 111741.984030 1712.481251 -66.284541 0.043154 0.000000 1.472015
130.428571 114351.184879 1613.791280 -59.320876 0.043154 0.000000 1.171503
132.000000 116813.899483 1524.733687 -54.025151 0.043154 0.000000 0.942970
133.571429 119143.205039 1443.060867 -49.922075 0.043154 0.000000 0.765905
135.142857 121349.233635 1367.148452 -46.693726 0.043154 0.000000 0.626588
136.714286 123439.957317 1295.794252 -44.120710 0.043154 0.000000 0.515551
138.285714 125421.729856 1228.090601 -42.047573 0.043154 0.000000 0.426087
139.857143 127299.670634 1163.340499 -40.361648 0.043154 0.000000 0.353332
141.428571 129077.942853 1101.000885 -38.979679 0.043154 0.000000 0.293694
143.000000 130759.959129 1040.643278 -37.839093 0.043154 0.000000 0.244473
144.571429 132348.536011 981.925863 -36.892162 0.043154 0.000000 0.203609
146.142857 133846.011841 924.573298 -36.102011 0.043154 0.000000 0.169510
147.714286 135254.337806 868.361856 -35.439824 0.043154 0.000000 0.140934
149.285714 136575.149103 813.108319 -34.882859 0.043154 0.000000 0.116899
150.857143 137809.821094 758.661565 -34.413009 0.043154 0.000000 0.096623
152.428571 138959.514021 704.896111 -34.015750 0.043154 0.000000 0.079479
154.000000 140025.208871 651.707099 -33.679355 0.043154 0.000000 0.064962
155.571429 141007.736334 599.006367 -33.394304 0.043154 0.000000 0.052661
157.142857 141907.800311 546.719328 -33.152836 0.043154 0.000000 0.042241
158.714286 142725.997079 3018.394255 3178.920926 0.010000 33.354967 1.244017
160.285714 151394.182256 5282.822171 -296.921761 0.010000 0.000000 2.647478
161.857143 159329.152473 4896.222583 -195.114079 0.010000 0.000000 1.629401
163.428571 166782.310373 4633.800834 -138.877238 0.010000 0.000000 1.067032
165.000000 173892.526522 4442.251753 -104.912501 0.010000 0.000000 0.727385
166.571429 180743.673025 4294.488570 -83.149732 0.010000 0.000000 0.509757
168.142857 187389.490598 4175.242021 -68.618602 0.010000 0.000000 0.364446
169.714286 193865.862234 4075.266761 -58.622638 0.010000 0.000000 0.264486
171.285714 200197.471846 3988.669345 -51.592255 0.010000 0.000000 0.194183
172.857143 206401.680176 3911.547143 -46.563276 0.010000 0.000000 0.143893
174.428571 212490.905724 3841.240337 -42.918114 0.010000 0.000000 0.107441
176.000000 218474.149807 3775.895554 -40.247974 0.010000 0.000000 0.080740
177.571429 224358.006037 3714.198822 -38.275141 0.010000 0.000000 0.061011
179.142857 230147.346103 3655.205710 -36.807001 0.010000 0.000000 0.046330
180.714286 235845.795411 3598.229849 -35.707731 0.010000 0.000000 0.035337
182.285714 241456.068487 3542.767872 -34.880240 0.010000 0.000000 0.027062
183.857143 246980.208725 3488.447814 -34.254380 0.010000 0.000000 0.020804
185.428571 252419.761616 3434.993027 -33.778984 0.010000 0.000000 0.016050
187.000000 257775.901097 3382.196613 -33.416452 0.010000 0.000000 0.012425
188.571429 263049.522400 3329.903067 -33.138970 0.010000 0.000000 0.009650
190.142857 268241.310735 3277.994996 -32.925847 0.010000 0.000000 0.007518
191.714286 273351.792388 3226.383422 -32.761612 0.010000 0.000000 0.005876
193.285714 278381.372918 3175.000648 -32.634647 0.010000 0.000000 0.004606
194.857143 283330.365852 3123.794990 -32.536191 0.010000 0.000000 0.003622
196.428571 288199.014314 3072.726857 -32.459614 0.010000 0.000000 0.002856
198.000000 292987.507403 3021.765828 -32.399878 0.010000 0.000000 0.002259
199.571429 297695.992630 2970.888452 -32.353146 0.010000 0.000000 0.001791
201.142857 302324.585396 2920.076602 -32.316482 0.010000 0.000000 0.001425
202.714286 306873.376236 2869.316223 -32.287636 0.010000 0.000000 0.001136
204.285714 311342.436383 2818.596388 -32.264882 0.010000 0.000000 0.000909
205.857143 315731.822026 2767.908573 -32.246882 0.010000 0.000000 0.000729
207.428571 320041.577613 2717.246119 -32.232605 0.010000 0.000000 0.000586
209.000000 324271.738400 2666.603804 -32.221250 0.010000 0.000000 0.000473
210.571429 328422.332426 2615.977525 -32.212196 0.010000 0.000000 0.000382
212.142857 332493.382051 2565.364048 -32.204957 0.010000 0.000000 0.000310
213.714286 336484.905150 2514.760818 -32.199155 0.010000 0.000000 0.000252
215.285714 340396.916050 2464.165810 -32.194492 0.010000 0.000000 0.000205
216.857143 344229.426266 2413.577417 -32.190735 0.010000 0.000000 0.000167
218.428571 347982.445076 2362.994361 -32.187701 0.010000 0.000000 0.000137
